wavelength i10 i09 i08 i07 i06 i05 i04 i03 i02
430.00034 6.110316190783388e-06 5.957545972354201e-06 5.794092998436563e-06 5.605795909230104e-06 5.39221791868988e-06 5.1542618636484674e-06 4.890155814068862e-06 4.590210141028963e-06 4.224514645431699e-06
430.0012 5.876887566396661e-06 5.76959804414801e-06 5.643120826419094e-06 5.482612199903304e-06 5.287695938302189e-06 5.061102531588761e-06 4.803734519204986e-06 4.509112311904914e-06 4.151239543125414e-06
430.00206 5.83854472831224e-06 5.771382845289041e-06 5.665660037085631e-06 5.5096466519663186e-06 5.3073491704121606e-06 5.0665869801685635e-06 4.79301582358102e-06 4.484423717739369e-06 4.119119690843956e-06
430.00292 6.040074662339584e-06 6.007709693636689e-06 5.898091833567684e-06 5.7146152269076266e-06 5.4722443933267145e-06 5.186978010051368e-06 4.870860693600957e-06 4.526361255954743e-06 4.136076084510208e-06
430.00378 6.5737985881713234e-06 6.544031136827477e-06 6.3828049765287895e-06 6.125052082776979e-06 5.801094296771402e-06 5.436004748756992e-06 5.048196040892039e-06 4.644023354592787e-06 4.209330005700094e-06
430.00464 7.551526746489447e-06 7.4362452280596e-06 7.144829750088678e-06 6.751025247856677e-06 6.297800774720922e-06 5.816021079226077e-06 5.327951879837491e-06 4.841535089222771e-06 4.343522990867477e-06
430.0055 9.016102753667367e-06 8.675290992905017e-06 8.157528931023548e-06 7.563023513603055e-06 6.936513555610784e-06 6.3074657210413604e-06 5.697534193148317e-06 5.112766480831532e-06 4.5377097600146465e-06
430.00636 1.0838238822314023e-05 1.0136567471648518e-05 9.315974137790687e-06 8.47684260871764e-06 7.652033977257306e-06 6.862086581607767e-06 6.123487563971673e-06 5.436705788689487e-06 4.7815043300737886e-06
430.00722 1.2698244935630539e-05 1.1580830244167653e-05 1.0442276671545082e-05 9.359439224154141e-06 8.34484268635724e-06 7.406308935390873e-06 6.552459590473915e-06 5.77638660894597e-06 5.052150124362697e-06
430.00808 1.4194925343377198e-05 1.2723920722725582e-05 1.1331778730541616e-05 1.0060607322619638e-05 8.903043430130395e-06 7.855880789406181e-06 6.920731146497789e-06 6.0841255432171605e-06 5.315444214562917e-06
430.00894 1.5004315539212284e-05 1.3338454680705716e-05 1.1820114348094431e-05 1.045793796200654e-05 9.233587029566588e-06 8.138326173706072e-06 7.170079058639229e-06 6.31224783712464e-06 5.532291439984394e-06
430.0098 1.498538555779065e-05 1.3327721993749242e-05 1.1833152026932733e-05 1.0491991546922556e-05 9.287117739530634e-06 8.211041611422365e-06 7.262604211230554e-06 6.425461275985059e-06 5.667608551389577e-06
430.01066 1.4202103728317138e-05 1.2737359740971888e-05 1.1395913261916925e-05 1.0173494071121008e-05 9.06436081154939e-06 8.067849697006812e-06 7.186417272806883e-06 6.405933443812203e-06 5.6953807757218635e-06
430.01152 1.2881797418547707e-05 1.1713520805192512e-05 1.0603115343789799e-05 9.56415405116208e-06 8.604506010259978e-06 7.731223858411501e-06 6.950462733267139e-06 6.250404326944611e-06 5.598500910829057e-06
430.01238 1.1313073409749967e-05 1.0436558493262918e-05 9.577790530529813e-06 8.74988887269167e-06 7.966719275663188e-06 7.2393779618419225e-06 6.575442869259994e-06 5.964185592247446e-06 5.36729417787598e-06
430.01324 9.704415244625622e-06 9.062189290798348e-06 8.438869576576494e-06 7.819466964198082e-06 7.213691768727e-06 6.633186878336596e-06 6.08527682201346e-06 5.5573392357312675e-06 5.002458519174102e-06
430.0141 8.138130875553954e-06 7.699230618010572e-06 7.28363771748867e-06 6.849723821953824e-06 6.40275333184589e-06 5.954065735361962e-06 5.509255290709962e-06 5.051408635017112e-06 4.527115069244912e-06
430.01496 6.6706808885396824e-06 6.430783520240777e-06 6.1882793888584474e-06 5.905180087884534e-06 5.588421374630108e-06 5.248435323813851e-06 4.888180917573766e-06 4.488237867996407e-06 3.994241440283214e-06
430.01582 5.418661604001703e-06 5.3391304909360744e-06 5.220627072434727e-06 5.0467457990102695e-06 4.827652209023499e-06 4.571522849234638e-06 4.278480518884088e-06 3.929537271875471e-06 3.4740259348380586e-06
430.01668 4.49790045079273e-06 4.4934424689960476e-06 4.440314942132143e-06 4.33287601828188e-06 4.179115496343258e-06 3.983069840489236e-06 3.7420268032427464e-06 3.438800396679342e-06 3.0281651048004496e-06
430.01754 3.9189960056550435e-06 3.916942301705397e-06 3.8832045322196164e-06 3.8070067951319486e-06 3.6897886344912976e-06 3.5315543720968373e-06 3.327289824707974e-06 3.0611628354430723e-06 2.693247658818004e-06
430.0184 3.6054834966048225e-06 3.5843413322655628e-06 3.550624199037756e-06 3.485180022577911e-06 3.3833994693354388e-06 3.243307613845606e-06 3.0591422175540974e-06 2.816333333821315e-06 2.4795654701757554e-06
430.01926 3.489103277971621e-06 3.4673516476793074e-06 3.4372005872148973e-06 3.3734801040971485e-06 3.270605261966462e-06 3.129051490302653e-06 2.9453254865354577e-06 2.7074775424400395e-06 2.384810034590153e-06
430.02012 3.5609987567566986e-06 3.5856924411207893e-06 3.5703949837467894e-06 3.495463150878791e-06 3.3689624847554807e-06 3.2006904626233595e-06 2.9926235564245175e-06 2.736663534147976e-06 2.406454774842687e-06
430.02098 3.917021868939922e-06 4.03862985767583e-06 4.017106399464254e-06 3.892984710370989e-06 3.704618223253168e-06 3.474892203001987e-06 3.2116199153045103e-06 2.909179035057556e-06 2.5441193163029486e-06
430.02184 4.818842573895578e-06 4.961285051785568e-06 4.834953513861827e-06 4.588469666964991e-06 4.2854477185439325e-06 3.954457959432876e-06 3.604490350933743e-06 3.2276661424423416e-06 2.799412679606509e-06
430.0227 6.444574073961711e-06 6.340736905546879e-06 5.969216671454525e-06 5.525065850882795e-06 5.062352297005164e-06 4.601160016064727e-06 4.1451176417082435e-06 3.6789408400946313e-06 3.1704692088290107e-06
430.02356 8.461146808126207e-06 7.897047567706592e-06 7.213750048893414e-06 6.546242514362673e-06 5.915087790360884e-06 5.323810080978525e-06 4.7660639704684325e-06 4.217116270516267e-06 3.6349829444655915e-06
430.02442 1.0213407919110794e-05 9.23775162695334e-06 8.297265850753052e-06 7.450019201743163e-06 6.686970773614797e-06 5.996748163221265e-06 5.364976532718817e-06 4.760226460315776e-06 4.133387130367666e-06
430.02528 1.1290407151839455e-05 1.0099623145687045e-05 9.025950171968476e-06 8.084816104877888e-06 7.253793377264465e-06 6.5139038790529936e-06 5.847505123454077e-06 5.221642928272752e-06 4.585966113792282e-06
430.02614 1.164527171446139e-05 1.0425552363841321e-05 9.344052674036993e-06 8.397967922609277e-06 7.565015219814716e-06 6.8260739339637905e-06 6.163941118875218e-06 5.547838711378127e-06 4.931304127099544e-06
430.027 1.1409783241914535e-05 1.0287736864093419e-05 9.292324791132359e-06 8.412624502862338e-06 7.63174784686054e-06 6.935088870217705e-06 6.308261964042657e-06 5.724320207062819e-06 5.142289042922601e-06
430.02786 1.0761889465724707e-05 9.80955334000937e-06 8.95677601071782e-06 8.189300027423447e-06 7.496981590624643e-06 6.87060838277042e-06 6.299488350667884e-06 5.760938181341224e-06 5.217758555330139e-06
430.02872 9.885400963910011e-06 9.128105316712975e-06 8.440527850233318e-06 7.805679480824048e-06 7.219035359010302e-06 6.676445377363216e-06 6.170600882084016e-06 5.682260874426965e-06 5.174913278536204e-06
430.02958 8.940992985826644e-06 8.370109590279301e-06 7.843129850399992e-06 7.339604581831103e-06 6.859109123590297e-06 6.4011748412216324e-06 5.960947868459541e-06 5.521287555662894e-06 5.044220594890419e-06
430.03044 8.048659142439103e-06 7.63790886303997e-06 7.2479931385463864e-06 6.858903680815967e-06 6.4727419182836354e-06 6.091079848139132e-06 5.710141371098444e-06 5.313877567834309e-06 4.863146783120531e-06
430.0313 7.290367518349104e-06 7.002865225870762e-06 6.716236409122669e-06 6.415889581305247e-06 6.1051602940082405e-06 5.785914004598206e-06 5.454334594459932e-06 5.094972488164206e-06 4.668967228736687e-06
430.03216 6.711180207630428e-06 6.503297836357923e-06 6.283876990648401e-06 6.044378637961676e-06 5.787881312660062e-06 5.515334138204706e-06 5.222152026934283e-06 4.893126020722805e-06 4.49061140663394e-06
430.03302 6.314536288360819e-06 6.145557002866047e-06 5.961873444449309e-06 5.758378379383041e-06 5.5366190597852125e-06 5.296042075739551e-06 5.0308153979238224e-06 4.725767029507418e-06 4.3444528740189486e-06
430.03388 6.069747665412634e-06 5.910576057587039e-06 5.739663159628698e-06 5.553195989732066e-06 5.350840742985884e-06 5.130321105100227e-06 4.884434413697235e-06 4.5975258806787354e-06 4.2334767846434976e-06
430.03474 5.930721937753011e-06 5.76416583389539e-06 5.591315333774859e-06 5.4093322788674714e-06 5.2161123083589566e-06 5.007472320798267e-06 4.7746311115406915e-06 4.500897860070797e-06 4.149202589575688e-06
430.0356 5.847168034813995e-06 5.663100438762452e-06 5.48026267205754e-06 5.29619728068567e-06 5.1066310792793135e-06 4.905075474252142e-06 4.68068977962262e-06 4.415517389408639e-06 4.070038211960449e-06
430.03646 5.76170224316175e-06 5.55509402842641e-06 5.360887173708802e-06 5.173634554298431e-06 4.986121702546958e-06 4.789002466769601e-06 4.56944674148178e-06 4.307655383704814e-06 3.959295278523968e-06
430.03732 5.604874318427516e-06 5.379369057727365e-06 5.180045283240509e-06 4.993890497942752e-06 4.8096265586807465e-06 4.615361779230709e-06 4.396655749325697e-06 4.131128251527813e-06 3.766122560342404e-06
430.03818 5.302869760832353e-06 5.077086257035715e-06 4.888222871164628e-06 4.711803078797594e-06 4.533272053234199e-06 4.340079409574793e-06 4.118050423394193e-06 3.840712150011964e-06 3.444696196294956e-06
430.03904 4.814987974665887e-06 4.620516861994594e-06 4.458877832304302e-06 4.299193247584676e-06 4.129526491319947e-06 3.938283821062365e-06 3.711851186772404e-06 3.4199344280749595e-06 2.9939938139850777e-06
430.0399 4.182901698495247e-06 4.038056975304155e-06 3.9078575046583635e-06 3.768412643620189e-06 3.6118826883563916e-06 3.428233982018466e-06 3.2042379780091226e-06 2.9088446677017117e-06 2.4826863187806176e-06
430.04076 3.5262806435304406e-06 3.4130266678935317e-06 3.3074904824822625e-06 3.1886401456883452e-06 3.0501770878656486e-06 2.8826980212998703e-06 2.673515237911235e-06 2.398119487964208e-06 2.014398766641177e-06
430.04163 2.9543773242432737e-06 2.845245589100975e-06 2.756773822873121e-06 2.657588567830132e-06 2.539467904998362e-06 2.394432958252455e-06 2.211747470119072e-06 1.9738245020934284e-06 1.6512526594864484e-06
430.04249 2.494305546032147e-06 2.3942948426297332e-06 2.3224700032522785e-06 2.241742381149178e-06 2.1437251213370512e-06 2.021952208450992e-06 1.8676684073427989e-06 1.6668769743603359e-06 1.3995033765632268e-06
430.04335 2.149000674245732e-06 2.0878330958425374e-06 2.034882726754695e-06 1.969588858673887e-06 1.8870853239229556e-06 1.7824153681731299e-06 1.6479151038635854e-06 1.473193091453544e-06 1.2439159855920988e-06
430.04421 1.9626559348355835e-06 1.9448609581280958e-06 1.9072157256423518e-06 1.8507797862487876e-06 1.7749361147609497e-06 1.6763341656334696e-06 1.5483712034791031e-06 1.38363798902527e-06 1.1706216411921226e-06
430.04507 1.983609559566849e-06 1.983098627668978e-06 1.9492880175088438e-06 1.8918100282262916e-06 1.8113052560220349e-06 1.705520693911333e-06 1.5692644493943797e-06 1.3966773522584775e-06 1.1776161126199533e-06
430.04593 2.228357406342368e-06 2.2238017376183375e-06 2.1808682629687944e-06 2.109276170188474e-06 2.009789259977516e-06 1.8818492467303106e-06 1.7214504520955883e-06 1.5223146455779436e-06 1.2730131900422546e-06
430.04679 2.704980679450476e-06 2.6941137372873563e-06 2.627168422521224e-06 2.5237922235381625e-06 2.3880397814650508e-06 2.221263459319205e-06 2.020012019408294e-06 1.775599527934502e-06 1.4723665249225277e-06
430.04765 3.428810697329232e-06 3.4040103228986603e-06 3.2907083297996335e-06 3.135245490018068e-06 2.946117068618694e-06 2.7252955788985065e-06 2.469064677464418e-06 2.164784091564598e-06 1.7897304183651917e-06
430.04851 4.369009637635812e-06 4.30184667099595e-06 4.123332873640375e-06 3.901241273152946e-06 3.6468392910373976e-06 3.363088043903362e-06 3.046227955031728e-06 2.6791401903183232e-06 2.2302402908476107e-06
430.04937 5.4060079070098014e-06 5.269797640241221e-06 5.022873057717276e-06 4.733273574411335e-06 4.413736993424132e-06 4.068739081002851e-06 3.6956716305310954e-06 3.2755889510397236e-06 2.770502216427213e-06
430.05023 6.430437722959232e-06 6.212970449985339e-06 5.8997380683148795e-06 5.546703796491345e-06 5.16690205854582e-06 4.765650865006443e-06 4.342792729663988e-06 3.881707252242537e-06 3.341927157835482e-06
430.05109 7.424040461630832e-06 7.111974092389578e-06 6.724212454893349e-06 6.304788039372525e-06 5.8641071263429e-06 5.407646139269922e-06 4.93666023303253e-06 4.438299312879668e-06 3.875218750078296e-06
430.05195 8.41578781252509e-06 7.992540716868774e-06 7.513112126355397e-06 7.015515933964247e-06 6.506045337361246e-06 5.988573839349408e-06 5.464929924705788e-06 4.9249913770335914e-06 4.337299483539446e-06
430.05281 9.423453234716892e-06 8.875396583257754e-06 8.289314746865938e-06 7.699633614246415e-06 7.10941422318776e-06 6.5211336445743914e-06 5.9362076543747986e-06 5.345451475764343e-06 4.723284735873457e-06
430.05367 1.0443599907233014e-05 9.76517306735226e-06 9.063443677776887e-06 8.370985896242508e-06 7.68920831449655e-06 7.019459125625792e-06 6.3632118503253e-06 5.711683077478978e-06 5.043241744809165e-06
430.05453 1.1463625443139828e-05 1.0656189227125715e-05 9.83638670868165e-06 9.035273726291388e-06 8.254576045010404e-06 7.495142613532962e-06 6.759045366614702e-06 6.038138649179642e-06 5.313422331850399e-06
430.05539 1.2470249505997242e-05 1.1538618028819169e-05 1.0602333605789426e-05 9.690845402520714e-06 8.807461904034217e-06 7.953485986094187e-06 7.132084725227388e-06 6.336295392116875e-06 5.548944857939589e-06
430.05625 1.3451165760663043e-05 1.2401166591632527e-05 1.1351586356388294e-05 1.0330516276604827e-05 9.343301565359234e-06 8.392883704467877e-06 7.484122493413197e-06 6.611313788053739e-06 5.758965525718256e-06
430.05711 1.4393699699670873e-05 1.3230428164102533e-05 1.2070994453075505e-05 1.0942284687908628e-05 9.852251666556826e-06 8.806141860998673e-06 7.811026714538115e-06 6.862504724377779e-06 5.946777841301691e-06
430.05797 1.528195063798237e-05 1.4008614918975232e-05 1.2741909450095709e-05 1.1508210865673728e-05 1.0318699030863753e-05 9.18084737213816e-06 8.104151618149572e-06 7.0851686081609015e-06 6.111606897044944e-06
430.05883 1.6093296838485016e-05 1.4710032739416741e-05 1.3337620752011928e-05 1.2003145619299857e-05 1.07207214283303e-05 9.499500534105759e-06 8.35070369442498e-06 7.271286185816096e-06 6.249723308493598e-06
430.05969 1.679311891880271e-05 1.5297006125798195e-05 1.3821559108373674e-05 1.2394623925122295e-05 1.1031304115641339e-05 9.740988396127544e-06 8.535165166105806e-06 7.410364595258858e-06 6.354900361468457e-06
430.06055 1.7328418195795322e-05 1.5717358432334508e-05 1.4148203537678893e-05 1.2645538224811052e-05 1.1221581727471286e-05 9.883551388245612e-06 8.641553965666657e-06 7.491018684862397e-06 6.419273721088544e-06
430.06141 1.7622447204903912e-05 1.5907234926446896e-05 1.426911370835479e-05 1.2720256502950451e-05 1.126574373905384e-05 9.908573897455123e-06 8.656297281927604e-06 7.503068023490724e-06 6.434746938681388e-06
430.06227 1.7581304304121493e-05 1.5804076537629692e-05 1.4144678518664996e-05 1.2593845237350883e-05 1.1147893314013043e-05 9.805676009790208e-06 8.57227674033447e-06 7.440781732157684e-06 6.395113815546108e-06
430.06313 1.713122769928317e-05 1.5374524862664685e-05 1.3762917143901595e-05 1.2264867542282851e-05 1.0871295270718625e-05 9.579514814430434e-06 8.393603264815263e-06 7.3062560293701435e-06 6.299108041938125e-06
430.06399 1.6287901187704927e-05 1.4653097408355284e-05 1.3161787401242024e-05 1.176870488920425e-05 1.0466451985970455e-05 9.254688072000083e-06 8.138559758107073e-06 7.111517994305496e-06 6.152967728164707e-06
430.06485 1.5201668911644578e-05 1.3762686638024879e-05 1.2437764607648944e-05 1.1180469834494462e-05 9.991171109249577e-06 8.874870087834305e-06 7.839211473566085e-06 6.879259522425596e-06 5.972733937645945e-06
430.06571 1.4116255172345783e-05 1.2883563458957782e-05 1.1723079254035832e-05 1.0598350939157006e-05 9.518789279880197e-06 8.49483471002639e-06 7.536374511897193e-06 6.640074701152498e-06 5.782740135207939e-06
430.06657 1.3261286214801416e-05 1.2181769075087808e-05 1.1139511645951047e-05 1.0113509898643153e-05 9.118349573913244e-06 8.167101211217074e-06 7.2703603738482095e-06 6.4256932727649126e-06 5.609759822986228e-06
430.06743 1.2757680299678661e-05 1.1747640982454381e-05 1.0759658840215777e-05 9.784700742701547e-06 8.837261802056153e-06 7.929702136521906e-06 7.071847747504443e-06 6.261397830104593e-06 5.475471362977224e-06
430.06829 1.2594707040075181e-05 1.1585140499924966e-05 1.0598508936054464e-05 9.631095104515107e-06 8.695052379911756e-06 7.800772900622643e-06 6.956915158977173e-06 6.1611179917304125e-06 5.391523451460174e-06
430.06915 1.2689473578020786e-05 1.164766461074287e-05 1.0632062783236329e-05 9.64173737256287e-06 8.688071209226e-06 7.780532314957152e-06 6.927505689236974e-06 6.127098027071381e-06 5.359096934652739e-06
430.07001 1.2968464572348022e-05 1.188402628120756e-05 1.08240219049136e-05 9.791412742264543e-06 8.799057076023024e-06 7.857168744705044e-06 6.975316138912377e-06 6.152950863443647e-06 5.372163666007008e-06
430.07087 1.339599821753124e-05 1.22587272661263e-05 1.1141772084252188e-05 1.0052427779194573e-05 9.005523954118581e-06 8.012991312825442e-06 7.086608766620202e-06 6.227937931225414e-06 5.421730801365159e-06
430.07173 1.3949761917189173e-05 1.2743601899867292e-05 1.1555997016108113e-05 1.0396867726183938e-05 9.282568398809672e-06 8.226939618561904e-06 7.244491606616427e-06 6.339155437989212e-06 5.498318645300193e-06
430.07259 1.4593935328325137e-05 1.3304212739946653e-05 1.2033172317379898e-05 1.0792478758885542e-05 9.600641709424278e-06 8.473578683230407e-06 7.42867811783302e-06 6.471726505463988e-06 5.5920652865294615e-06
430.07345 1.5278020891507005e-05 1.3895502518234588e-05 1.252987791435225e-05 1.1198198940509393e-05 9.922792853660188e-06 8.721671925826683e-06 7.614540056518143e-06 6.6079516449129825e-06 5.691819327807269e-06
430.07431 1.5947007208397004e-05 1.4460380510951385e-05 1.2988767186045394e-05 1.1561227971900692e-05 1.0203271613521778e-05 8.93393709528764e-06 7.773670955374812e-06 6.727790318026316e-06 5.784905738320924e-06
430.07517 1.6534896644442855e-05 1.4920946789006092e-05 1.3335063599110579e-05 1.1817302748256444e-05 1.03904629625226e-05 9.070903647085775e-06 7.876661536683667e-06 6.809960933890791e-06 5.856629130190629e-06
430.07603 1.693206516837069e-05 1.516675771940337e-05 1.3477630616190585e-05 1.1896157528033823e-05 1.0431659409250806e-05 9.09266817027945e-06 7.892943644000632e-06 6.831081906334018e-06 5.8890051660172144e-06
430.07689 1.694770777812674e-05 1.505730425635027e-05 1.3319019171724837e-05 1.1728223135911825e-05 1.0275339827930602e-05 8.960275062034726e-06 7.792480098324856e-06 6.767080411697384e-06 5.860475122614494e-06
430.07775 1.6332913732420665e-05 1.4452878623946441e-05 1.2774387213754086e-05 1.1257740698274565e-05 9.882671327432814e-06 8.645495862119212e-06 7.5533765875486515e-06 6.597925355087316e-06 5.74776962670298e-06
430.07861 1.4944487453894675e-05 1.3292823268061402e-05 1.1816334164375404e-05 1.0473909720781852e-05 9.2515115389371e-06 8.149124877214857e-06 7.1737265355221855e-06 6.314283971658604e-06 5.531811048796114e-06
430.07947 1.2952835318155082e-05 1.1689192016883318e-05 1.052864932199995e-05 9.443331569495946e-06 8.433536430679728e-06 7.507358919287809e-06 6.674442735406917e-06 5.923744341843493e-06 5.209422856300011e-06
430.08033 1.07700652943489e-05 9.911447678468715e-06 9.103131751258226e-06 8.30578561200642e-06 7.529140031753545e-06 6.790611900709485e-06 6.104308669619157e-06 5.4598451020243845e-06 4.806894454079671e-06
