#MURAM HIGH RES FROM SOWMYA
wavelength i10 i09 i08 i07 i06 i05 i04 i03 i02
430.00034 7.595589467898309e-06 7.228512741293237e-06 6.902203543954224e-06 6.585791018786933e-06 6.270269821255536e-06 5.950626251502076e-06 5.621041114111656e-06 5.26832327710442e-06 4.851339210576017e-06
430.0012 7.329685096509759e-06 6.996005386512736e-06 6.707526798215095e-06 6.425301603554498e-06 6.138932690982821e-06 5.84256302775166e-06 5.529709347157248e-06 5.187626759069086e-06 4.777545535890584e-06
430.00206 7.235056760278411e-06 6.930842858594316e-06 6.6695764753696324e-06 6.406043954732798e-06 6.130118171287655e-06 5.836834959200733e-06 5.520672567217969e-06 5.170468498262573e-06 4.750229819678349e-06
430.00292 7.3360959409590785e-06 7.060616159257648e-06 6.812920529724005e-06 6.548184867944133e-06 6.260041788682828e-06 5.946598425407772e-06 5.604925943464448e-06 5.226107035755075e-06 4.777240393641512e-06
430.00378 7.697868844693451e-06 7.439122173647693e-06 7.178143661365961e-06 6.881833582606268e-06 6.551327867003207e-06 6.189305797269918e-06 5.796303922302988e-06 5.365739736681063e-06 4.867337062527338e-06
430.00464 8.418725632954751e-06 8.13019264788859e-06 7.80631875270643e-06 7.434315892140742e-06 7.023175398195297e-06 6.579513847735234e-06 6.106644353858503e-06 5.599371673276338e-06 5.028691088127602e-06
430.0055 9.566840977572924e-06 9.159970953951795e-06 8.704461328992743e-06 8.20481774403944e-06 7.672873655160862e-06 7.115346770148588e-06 6.536152607473864e-06 5.929522066654859e-06 5.265255639027993e-06
430.00636 1.1078809452706245e-05 1.045671875583958e-05 9.80633065829075e-06 9.136925718325697e-06 8.455074774809435e-06 7.762567303185383e-06 7.061024764411998e-06 6.341718514103412e-06 5.570351322657903e-06
430.00722 1.271147867809132e-05 1.1826762019868756e-05 1.0958036108425195e-05 1.0107924923767198e-05 9.272356236685699e-06 8.445137156867262e-06 7.623939382357393e-06 6.7955330678651435e-06 5.9185780006598575e-06
430.00808 1.4115875118904269e-05 1.3001875651002201e-05 1.1949495904091561e-05 1.0949957179529574e-05 9.988834770030783e-06 9.052994309018073e-06 8.13661386586903e-06 7.2221243818249145e-06 6.260656184231607e-06
430.00894 1.4979257408248962e-05 1.3735884707865547e-05 1.2582198962689752e-05 1.149939234343856e-05 1.0466873403600853e-05 9.46875989510815e-06 8.498396579455738e-06 7.536299546096185e-06 6.528936386338972e-06
430.0098 1.5131877117768132e-05 1.3890114528627415e-05 1.27358518819291e-05 1.1649253501405387e-05 1.0609713994695928e-05 9.60377224299632e-06 8.627596592130392e-06 7.663217047106402e-06 6.658224474231643e-06
430.01066 1.4581897289492812e-05 1.3462968065857442e-05 1.2395630101755714e-05 1.1374976435832087e-05 1.0386793901091448e-05 9.424205358028705e-06 8.48838123586546e-06 7.56564239917461e-06 6.610211212809684e-06
430.01152 1.3492551927998294e-05 1.2562956356188355e-05 1.1633751043989914e-05 1.0725102841178722e-05 9.83146871767272e-06 8.95311600400288e-06 8.096642360382625e-06 7.25305170401864e-06 6.3846650556038515e-06
430.01238 1.210438514046618e-05 1.135025805242813e-05 1.057022379206501e-05 9.794499949774474e-06 9.02164329874807e-06 8.256138085885315e-06 7.508425307870421e-06 6.772503499994363e-06 6.014023733778142e-06
430.01324 1.0607789201469006e-05 9.977801362423403e-06 9.334869054610889e-06 8.696457766577422e-06 8.057478748441861e-06 7.4228297861326985e-06 6.802800281654495e-06 6.191220584755507e-06 5.549114084792051e-06
430.0141 9.093780610832295e-06 8.568379226573278e-06 8.052730252888451e-06 7.549748466535729e-06 7.048681138788879e-06 6.552189200889671e-06 6.065976291628115e-06 5.578859641355015e-06 5.044323742356526e-06
430.01496 7.648718163247941e-06 7.242732116186249e-06 6.8536378568844515e-06 6.480248750160168e-06 6.1106578155540355e-06 5.7441880409659934e-06 5.378909776219223e-06 4.998081888646622e-06 4.551556350262616e-06
430.01582 6.422715842878967e-06 6.133685003041779e-06 5.859487089034058e-06 5.598195591784792e-06 5.3376467240798685e-06 5.073769056498105e-06 4.799133677983299e-06 4.4948468508468255e-06 4.113507792363987e-06
430.01668 5.540894163100818e-06 5.326142589175249e-06 5.134546978956068e-06 4.952315873129007e-06 4.765821385332198e-06 4.568243469930339e-06 4.349926379067135e-06 4.0928160187723165e-06 3.7550366917037254e-06
430.01754 5.001496597682e-06 4.817352253625238e-06 4.670907723217931e-06 4.531982681104598e-06 4.3854357636291225e-06 4.222586139332675e-06 4.0328019694450485e-06 3.799788336536693e-06 3.4870259198788017e-06
430.0184 4.724025474866297e-06 4.552614576418704e-06 4.425785208171678e-06 4.304755067329058e-06 4.173760130044891e-06 4.023066939236552e-06 3.841647697392584e-06 3.615057911950544e-06 3.31134213087411e-06
430.01926 4.638221206484306e-06 4.476528765860712e-06 4.3596759269460054e-06 4.24371030922337e-06 4.112922334063762e-06 3.9581904768910366e-06 3.769526792300161e-06 3.5346331454736526e-06 3.225259525449181e-06
430.02012 4.712918889513721e-06 4.570704727633317e-06 4.466729870779263e-06 4.348077194723271e-06 4.203637231580818e-06 4.028774810583164e-06 3.817018253422435e-06 3.558550785732497e-06 3.2280277884867647e-06
430.02098 4.975652412812497e-06 4.891260957948488e-06 4.797077043667952e-06 4.65650445379268e-06 4.474788069747156e-06 4.256381167511788e-06 3.999757064804353e-06 3.6971932802641397e-06 3.325311129617442e-06
430.02184 5.618371588187625e-06 5.5785541910377326e-06 5.439651559127636e-06 5.227379978326007e-06 4.967433985067063e-06 4.671753008024629e-06 4.341859748179949e-06 3.969634871928294e-06 3.5308086214074406e-06
430.0227 6.9004519765951115e-06 6.712947041440738e-06 6.417750791934026e-06 6.066945719149096e-06 5.685616391083715e-06 5.2822266156113525e-06 4.855157664891735e-06 4.39134752459246e-06 3.861604501672091e-06
430.02356 8.6244293037242e-06 8.11905726801429e-06 7.594939097439684e-06 7.0731044497222316e-06 6.555494092632298e-06 6.037368392899212e-06 5.508972171261315e-06 4.948406370841126e-06 4.317226032574051e-06
430.02442 1.0212085976032064e-05 9.441122231672976e-06 8.722367791860185e-06 8.057832108807964e-06 7.429180519355428e-06 6.818934235384888e-06 6.209022638267229e-06 5.569070450032366e-06 4.850514604355133e-06
430.02528 1.1290704220441838e-05 1.0395200386599718e-05 9.57832554432995e-06 8.836047862237516e-06 8.143552336855662e-06 7.478364261486006e-06 6.819235649479382e-06 6.133025253772324e-06 5.365461619680073e-06
430.02614 1.1794049346740106e-05 1.0883455905434851e-05 1.0054209388668128e-05 9.297664813980946e-06 8.588750686040043e-06 7.905735187370509e-06 7.229981438388974e-06 6.531828820236303e-06 5.758889578435089e-06
430.027 1.1788667161426217e-05 1.0935171010869126e-05 1.0150282913620265e-05 9.424794286912508e-06 8.736047189068463e-06 8.066309855126465e-06 7.402355509592588e-06 6.721281681244824e-06 5.974929321572784e-06
430.02786 1.1392215133204305e-05 1.0635764947505497e-05 9.928146909931388e-06 9.261763577078694e-06 8.618608038132137e-06 7.986190417040525e-06 7.3571643065032176e-06 6.714781507736075e-06 6.014403771628394e-06
430.02872 1.0747577838139263e-05 1.0097188951477925e-05 9.47901387479471e-06 8.88539575729251e-06 8.30307570202315e-06 7.724612567405267e-06 7.146977258612056e-06 6.557514503609053e-06 5.912759778875369e-06
430.02958 9.993139162313562e-06 9.43775978679839e-06 8.905685477615139e-06 8.386740443893159e-06 7.87124627409557e-06 7.355086629748315e-06 6.837440876212783e-06 6.307184853251105e-06 5.720266195516455e-06
430.03044 9.241863517065824e-06 8.76460290578989e-06 8.307128867796548e-06 7.856788191385603e-06 7.406136684848983e-06 6.952519921872286e-06 6.495061948265784e-06 6.022139027650335e-06 5.488606363749324e-06
430.0313 8.577795351391936e-06 8.160587375924215e-06 7.763224263985534e-06 7.370639845756945e-06 6.976596140337072e-06 6.578561482654709e-06 6.17382682411127e-06 5.749469654683764e-06 5.26003185003578e-06
430.03216 8.05042666719535e-06 7.673516145052125e-06 7.3205183592677436e-06 6.972505903011735e-06 6.62296333247528e-06 6.268600756469679e-06 5.904386961010496e-06 5.516464263903193e-06 5.059798565435399e-06
430.03302 7.667026043767843e-06 7.312649452269488e-06 6.988854445011024e-06 6.671713418195234e-06 6.353303255978978e-06 6.029314725520303e-06 5.692897616096193e-06 5.3296510222277066e-06 4.895223471474876e-06
430.03388 7.401337562089082e-06 7.0576930012977e-06 6.75037436510543e-06 6.4516831208048085e-06 6.1523899994084075e-06 5.84689911217191e-06 5.527742684843193e-06 5.180169000912212e-06 4.760115873784602e-06
430.03474 7.212462986259364e-06 6.872268273571443e-06 6.571476330620338e-06 6.281500119776578e-06 5.992260810070276e-06 5.696877157282825e-06 5.387691323635797e-06 5.050048232300945e-06 4.639521799559816e-06
430.0356 7.053369667837866e-06 6.710781841531847e-06 6.409522376737336e-06 6.122226301278514e-06 5.837912481922368e-06 5.548156796332374e-06 5.245676078842362e-06 4.915148900061786e-06 4.5114994501602055e-06
430.03646 6.867121303585563e-06 6.519112930674876e-06 6.214746016431559e-06 5.9290933650531235e-06 5.649335817214756e-06 5.365640581526308e-06 5.070536047622913e-06 4.746728381169708e-06 4.348709460942312e-06
430.03732 6.5882607748758375e-06 6.2393230045737544e-06 5.935179095402172e-06 5.656597101849545e-06 5.386944195297418e-06 5.114805806345107e-06 4.831207543822497e-06 4.516125849840816e-06 4.122495056342156e-06
430.03818 6.16096287427305e-06 5.826225766925566e-06 5.535300439643227e-06 5.27497023128532e-06 5.025578550276853e-06 4.773268688235392e-06 4.506631655578185e-06 4.203347888218394e-06 3.815764240250841e-06
430.03904 5.576579367771817e-06 5.277347854807311e-06 5.0201107267873e-06 4.7914259788836514e-06 4.571103568323604e-06 4.345871130792371e-06 4.10158935218185e-06 3.8149573354020576e-06 3.4399988428867015e-06
430.0399 4.91357458320097e-06 4.661860165572347e-06 4.449665109295951e-06 4.259942815534714e-06 4.072728010177059e-06 3.876802211084416e-06 3.657618378688134e-06 3.392354925202301e-06 3.0394838605187422e-06
430.04076 4.314155321533989e-06 4.095945343308289e-06 3.921562789223526e-06 3.7646782489615425e-06 3.6052773281220853e-06 3.4334829600059765e-06 3.2362884719080723e-06 2.993621653132269e-06 2.6694709942325436e-06
430.04163 3.86584602326925e-06 3.662077289729317e-06 3.5101895755914952e-06 3.3725987218395774e-06 3.2297645128059557e-06 3.072515261294882e-06 2.8892653650209997e-06 2.664476651782896e-06 2.3690908904007072e-06
430.04249 3.560397346217764e-06 3.371445660605408e-06 3.2329052748951273e-06 3.1044566653064408e-06 2.96898388133268e-06 2.8180140324346033e-06 2.6412833392271503e-06 2.426286139597178e-06 2.1507209002425e-06
430.04335 3.364800220885088e-06 3.2004397126933206e-06 3.0734992769853867e-06 2.949780537957154e-06 2.8162001048681844e-06 2.665993948848551e-06 2.4901628957608483e-06 2.278146578886231e-06 2.0117373465812474e-06
430.04421 3.2723668617265003e-06 3.134805640356665e-06 3.017113364842488e-06 2.8954609529583164e-06 2.7607756972197743e-06 2.6074715443528004e-06 2.4279937686760226e-06 2.2130621266328955e-06 1.947241957836094e-06
430.04507 3.3022683238559824e-06 3.1790562259718108e-06 3.0649034388679518e-06 2.941429107356642e-06 2.8021350071359084e-06 2.642043945611835e-06 2.4541391867400196e-06 2.2300689043979034e-06 1.955573534159766e-06
430.04593 3.4770898377638314e-06 3.350781354684347e-06 3.2319979031830606e-06 3.100334222210567e-06 2.950063996241255e-06 2.776996724156706e-06 2.574117709135307e-06 2.3330907721678884e-06 2.0384573316201725e-06
430.04679 3.8172765097873655e-06 3.6796448406299786e-06 3.5469407879846264e-06 3.3972930190381053e-06 3.2259800197115498e-06 3.029398348516586e-06 2.8007274465993685e-06 2.5306462227291638e-06 2.200801156567105e-06
430.04765 4.354103560779653e-06 4.1976726661596354e-06 4.0386832469087405e-06 3.857904447344304e-06 3.6524052521955426e-06 3.4183714977169897e-06 3.1494929842098664e-06 2.833812073331884e-06 2.4504797623445524e-06
430.04851 5.090122260847062e-06 4.898604107362181e-06 4.698967747814042e-06 4.4762735456227106e-06 4.226540713219509e-06 3.944635042409416e-06 3.624157566609033e-06 3.249902636965749e-06 2.7985097665477843e-06
430.04937 5.94514261534161e-06 5.7126333632343725e-06 5.464975033870886e-06 5.196785392669712e-06 4.901378390842564e-06 4.5715172155565824e-06 4.1990238787654615e-06 3.765957941417449e-06 3.244866742490836e-06
430.05023 6.841888767863148e-06 6.565976911626172e-06 6.267180135553724e-06 5.950913522447722e-06 5.609821993547969e-06 5.235147572858016e-06 4.8168445676016e-06 4.335023779081446e-06 3.7572036387155638e-06
430.05109 7.763371768804372e-06 7.427066406322664e-06 7.068410337177353e-06 6.697289290081283e-06 6.3062303012482564e-06 5.886065641626637e-06 5.425739694725343e-06 4.904753667660023e-06 4.285713067153822e-06
430.05195 8.705810352746923e-06 8.290936193037696e-06 7.859750114759416e-06 7.424139824374127e-06 6.975592471385319e-06 6.504379880710384e-06 5.99999845286054e-06 5.441590150824168e-06 4.786429149118402e-06
430.05281 9.657284025018832e-06 9.15300284529342e-06 8.64051616841209e-06 8.132054292764111e-06 7.618129368516869e-06 7.088466869340324e-06 6.533345255445659e-06 5.9308999755105346e-06 5.234924645457309e-06
430.05367 1.0603756266749682e-05 1.0006359673542086e-05 9.409119620983198e-06 8.823085477387406e-06 8.237936179928207e-06 7.643119732170028e-06 7.028988460728544e-06 6.373420060722534e-06 5.627421034149977e-06
430.05453 1.1534362401471972e-05 1.0844994336344123e-05 1.0163028041050724e-05 9.49731631895398e-06 8.837501753366149e-06 8.172346635278282e-06 7.492383039587998e-06 6.775739585595012e-06 5.9706931269133735e-06
430.05539 1.2441898248073131e-05 1.1664132385511569e-05 1.0899147402874413e-05 1.0153287982143423e-05 9.417085758560399e-06 8.678391833148109e-06 7.927968036626669e-06 7.144397670214558e-06 6.2734793565187994e-06
430.05625 1.3320835578556604e-05 1.2459064560423106e-05 1.161360399447054e-05 1.0788599222351234e-05 9.975225953131304e-06 9.161060376070174e-06 8.337735002802074e-06 7.483438786974108e-06 6.542612617647813e-06
430.05711 1.416480216523159e-05 1.3223488599688646e-05 1.2300303156056984e-05 1.1397636713779387e-05 1.050718417922408e-05 9.616977144724046e-06 8.72010650108481e-06 7.794070791323001e-06 6.782766959012763e-06
430.05797 1.4964516897288919e-05 1.3947283724349333e-05 1.2948534972022484e-05 1.1969839928195192e-05 1.1003708167047692e-05 1.0039043252009008e-05 9.070363552007132e-06 8.074800056722423e-06 6.995767392840445e-06
430.05883 1.5705268645046322e-05 1.4613832919878209e-05 1.3540970891505371e-05 1.2488321009440636e-05 1.1449818203467478e-05 1.0415074688096734e-05 9.379558600194239e-06 8.320240472003887e-06 7.180106957841478e-06
430.05969 1.6362305160931064e-05 1.5196442781712864e-05 1.4051132043962566e-05 1.2928532708232176e-05 1.1823949862333179e-05 1.0727062993555336e-05 9.633609739686632e-06 8.52043400153949e-06 7.330147679214293e-06
430.06055 1.689546211230386e-05 1.565470549042398e-05 1.4441534372751787e-05 1.3257686335329372e-05 1.2098158529160504e-05 1.0951891513971872e-05 9.81399610795138e-06 8.661239338496998e-06 7.43607755134579e-06
430.06141 1.724327588825249e-05 1.5933130981314527e-05 1.4665055223182632e-05 1.3436713088705614e-05 1.2240389768580057e-05 1.106346763948247e-05 9.899827795913689e-06 8.726314910734842e-06 7.48561033655106e-06
430.06227 1.7323991842725755e-05 1.5967746116560548e-05 1.4672214878074753e-05 1.3427118227378647e-05 1.2220485625499498e-05 1.1038010039846884e-05 9.872240125198317e-06 8.700550391894898e-06 7.4662836077391094e-06
430.06313 1.7060547507325e-05 1.57082516253185e-05 1.4429173528857742e-05 1.320539847940082e-05 1.2021611605410848e-05 1.0862786152667584e-05 9.721077829178644e-06 8.57497405910307e-06 7.369416973915643e-06
430.06399 1.6439989930042286e-05 1.5157391134533268e-05 1.3945533819050744e-05 1.2783085529005022e-05 1.1654705931733754e-05 1.0546751462414154e-05 9.452687964859268e-06 8.353288255968946e-06 7.196334568662821e-06
430.06485 1.5567165025636838e-05 1.4404118041412905e-05 1.3295205881786243e-05 1.2220623869210573e-05 1.1168400515640266e-05 1.0128437183775569e-05 9.097033357877205e-06 8.058656709421434e-06 6.964963742784965e-06
430.06571 1.4646511157762817e-05 1.3610561067752303e-05 1.2607098916909084e-05 1.1621609476168714e-05 1.064692255996476e-05 9.677052453927353e-06 8.711259419134366e-06 7.737832939746434e-06 6.712354251112762e-06
430.06657 1.389112852209411e-05 1.294748334048907e-05 1.2020886868278048e-05 1.1102774610444385e-05 1.0189815288691476e-05 9.278470284487298e-06 8.369247468292215e-06 7.4522462598104926e-06 6.4857143242846195e-06
430.06743 1.342686028750511e-05 1.252099347869934e-05 1.1631191051823985e-05 1.0749884515933416e-05 9.874695185429058e-06 9.001963013275849e-06 8.130929691992666e-06 7.2513261331553045e-06 6.322563228107187e-06
430.06829 1.32539003470262e-05 1.234427229003056e-05 1.1460359451841897e-05 1.0589895439283861e-05 9.729176490111362e-06 8.872842871453702e-06 8.017785417493363e-06 7.152468574541612e-06 6.236888542036586e-06
430.06915 1.3297177497675214e-05 1.2370653754159012e-05 1.1477509460657438e-05 1.0600962134886712e-05 9.736151952734161e-06 8.876206856182288e-06 8.016390583020807e-06 7.1446140165290654e-06 6.221252994786365e-06
430.07001 1.3491904409723223e-05 1.2549040250965738e-05 1.1639156348007857e-05 1.074464302027399e-05 9.860936134965617e-06 8.980706995154981e-06 8.099092567225466e-06 7.204685851428935e-06 6.258411339333854e-06
430.07087 1.3815300871371234e-05 1.2850419144529173e-05 1.191395426041617e-05 1.0989641816228339e-05 1.0073717683530706e-05 9.159241832694429e-06 8.242454341585704e-06 7.313144804494764e-06 6.332987602399037e-06
430.07173 1.4257479686802136e-05 1.325659373911626e-05 1.2280371723644585e-05 1.1313691911176466e-05 1.0353453571787597e-05 9.393396786123075e-06 8.431293046663844e-06 7.457890870535707e-06 6.43513904758541e-06
430.07259 1.479168070770978e-05 1.3741780247470015e-05 1.2713888775263743e-05 1.1693837568589859e-05 1.0679591858586184e-05 9.665766055096664e-06 8.65160814541182e-06 7.62814387555497e-06 6.556907650876844e-06
430.07345 1.5374767576530977e-05 1.4268839554120617e-05 1.3180795375160153e-05 1.209951238515098e-05 1.1025012067348758e-05 9.9531029647811e-06 8.884254985988522e-06 7.809295255638026e-06 6.688327009888785e-06
430.07431 1.5960861870958882e-05 1.4793261356793814e-05 1.3637796289285573e-05 1.2490485844804147e-05 1.1353836138078217e-05 1.0224568071222975e-05 9.103794507943081e-06 7.98158017041959e-06 6.8160339518031165e-06
430.07517 1.6500755416790907e-05 1.5258648108435528e-05 1.4028567826657713e-05 1.281519968574472e-05 1.1620954332954034e-05 1.0441783614302784e-05 9.278525373462408e-06 8.119960557255128e-06 6.922128030782585e-06
430.07603 1.6914333276790288e-05 1.557942538071096e-05 1.4275583915828612e-05 1.3007051980177128e-05 1.1770070432664359e-05 1.0557556664713784e-05 9.369307497116765e-06 8.1932581420453e-06 6.983910652419441e-06
430.07689 1.7047354608180173e-05 1.5626223017383605e-05 1.4275692518642842e-05 1.2982374015026548e-05 1.1732425375622139e-05 1.0515609634031298e-05 9.330860048183569e-06 8.165588852122423e-06 6.973612200401974e-06
430.07775 1.6668069171039055e-05 1.5241715161723485e-05 1.3912309247450964e-05 1.2650306100517886e-05 1.1435876059250782e-05 1.0258364682270427e-05 9.116832841335466e-06 7.998428768730148e-06 6.857764720658382e-06
430.07861 1.559305679463924e-05 1.4314687248058496e-05 1.3106318996287164e-05 1.1950986132670174e-05 1.0832958644246468e-05 9.746279471873989e-06 8.692543356443932e-06 7.65986267297704e-06 6.605596181123248e-06
430.07947 1.39120193299405e-05 1.2895149557265245e-05 1.1890824584650348e-05 1.0906955890991188e-05 9.93869060897818e-06 8.987517429291954e-06 8.060049318978796e-06 7.1483667357566395e-06 6.214115962895028e-06
430.08033 1.1988484388774682e-05 1.1219539631482347e-05 1.0435827870622608e-05 9.647377826119796e-06 8.853171768313175e-06 8.06127268821928e-06 7.284461961819538e-06 6.519875901843717e-06 5.730396481889041e-06
