K0 100G vt1 mean contrast spectra for all mus -- with molecular opacities, fixed rows
wavelength   i10       i09         i08        i07       i06        i05        i04       i03
1.1850e+02 2.5771e-14 2.2869e-14 2.2443e-14 2.2263e-14 4.6280e-12 2.3103e-14 2.4276e-14 2.6446e-14 3.1878e-14
1.1950e+02 2.6509e-14 2.3938e-14 2.3760e-14 2.3973e-14 2.4435e-14 2.5690e-14 2.7380e-14 3.0009e-14 3.6191e-14
1.2050e+02 3.0246e-14 2.7526e-14 2.7381e-14 2.7759e-14 3.3835e-14 2.9929e-14 3.2379e-14 3.5008e-14 4.2110e-14
1.2150e+02 3.5474e-14 3.2530e-14 3.2361e-14 3.2810e-14 3.3538e-14 3.5361e-14 3.7707e-14 4.1189e-14 4.9368e-14
1.2250e+02 4.2843e-14 1.7345e-11 6.7435e-14 3.9298e-14 4.0096e-14 4.2117e-14 4.4875e-14 4.9030e-14 5.8628e-14
1.2350e+02 5.7794e-14 5.2008e-14 5.1228e-14 5.1166e-14 5.1691e-14 5.3741e-14 5.6771e-14 6.1912e-14 7.3952e-14
1.2450e+02 6.0459e-14 5.3090e-14 4.9608e-14 4.6041e-14 4.3526e-14 4.1781e-14 4.0963e-14 4.1856e-14 4.5488e-14
1.2550e+02 7.6035e-14 6.6339e-14 6.1624e-14 5.6551e-14 5.3032e-14 5.0545e-14 4.9346e-14 5.0296e-14 5.4604e-14
1.2650e+02 8.5924e-14 7.5557e-14 7.0501e-14 6.5291e-14 6.1809e-14 5.9265e-14 5.8285e-14 5.9595e-14 6.4848e-14
1.2750e+02 1.0535e-13 9.2503e-14 8.6003e-14 7.9400e-14 7.4832e-14 7.1540e-14 7.0134e-14 7.1575e-14 7.7791e-14
1.2850e+02 1.2658e-13 1.1088e-13 1.0303e-13 9.5022e-14 8.9417e-14 8.5378e-14 8.3658e-14 8.5281e-14 9.2603e-14
1.2950e+02 1.4992e-13 1.3171e-13 1.2248e-13 1.1299e-13 1.0642e-13 1.0167e-13 9.9542e-14 1.0143e-13 1.0994e-13
1.3050e+02 1.7107e-13 1.5121e-13 1.4121e-13 1.3106e-13 1.2415e-13 1.1906e-13 1.1715e-13 1.1969e-13 1.2981e-13
1.3150e+02 2.0539e-13 1.8148e-13 1.6905e-13 1.5669e-13 1.4804e-13 1.4171e-13 1.3915e-13 1.4193e-13 1.5359e-13
1.3250e+02 2.3873e-13 2.1138e-13 1.9740e-13 1.8321e-13 1.7329e-13 1.6617e-13 1.6365e-13 1.6707e-13 1.8081e-13
1.3350e+02 2.7663e-13 2.4538e-13 2.2973e-13 2.1373e-13 2.0277e-13 1.9487e-13 1.9183e-13 1.9606e-13 2.1204e-13
1.3450e+02 3.2439e-13 2.8804e-13 2.6978e-13 2.5108e-13 2.3814e-13 2.2892e-13 2.2540e-13 2.5065e-13 2.4894e-13
1.3550e+02 3.7524e-13 3.3383e-13 3.1333e-13 2.9236e-13 2.7773e-13 2.6783e-13 2.6396e-13 2.6973e-13 2.9161e-13
1.3650e+02 4.3429e-13 3.8730e-13 3.6417e-13 3.4038e-13 3.2364e-13 3.1233e-13 3.0827e-13 3.1510e-13 3.4323e-13
1.3750e+02 4.9906e-13 4.4608e-13 4.2022e-13 3.9404e-13 3.7529e-13 3.7402e-13 3.5880e-13 3.6697e-13 9.1638e-13
1.3850e+02 5.7324e-13 5.1393e-13 4.8498e-13 4.5581e-13 4.3465e-13 4.2141e-13 4.1693e-13 4.2667e-13 6.2059e-13
1.3950e+02 6.6003e-13 5.9300e-13 5.6039e-13 5.2768e-13 5.0333e-13 4.8840e-13 4.8387e-13 4.9529e-13 5.3398e-13
1.4050e+02 7.6523e-13 6.8790e-13 6.4991e-13 6.1191e-13 5.8382e-13 5.6635e-13 5.6065e-13 5.8296e-13 6.1712e-13
1.4150e+02 8.7782e-13 7.9015e-13 7.4701e-13 7.0417e-13 6.7238e-13 2.0044e-12 6.4618e-13 6.6046e-13 7.0978e-13
1.4250e+02 1.0057e-12 9.0645e-13 8.5732e-13 8.0834e-13 7.7236e-13 7.4999e-13 7.4237e-13 7.5805e-13 8.1385e-13
1.4350e+02 1.1495e-12 1.0378e-12 9.8218e-13 9.2709e-13 8.8688e-13 8.6124e-13 8.5235e-13 8.6980e-13 9.3206e-13
1.4420e+02 1.2908e-12 1.1624e-12 1.0974e-12 1.0334e-12 9.8656e-13 9.5585e-13 9.4419e-13 9.6162e-13 1.0285e-12
1.4470e+02 1.3511e-12 1.2201e-12 1.1539e-12 1.0885e-12 1.0417e-12 1.0106e-12 9.9958e-13 1.0186e-12 1.0883e-12
1.4550e+02 1.5104e-12 1.3639e-12 1.2893e-12 1.2160e-12 1.1630e-12 1.1281e-12 1.1150e-12 1.1349e-12 1.2113e-12
1.4650e+02 1.7252e-12 1.5592e-12 1.4741e-12 1.3910e-12 1.3311e-12 1.2909e-12 1.2749e-12 1.2966e-12 1.3810e-12
1.4750e+02 1.9333e-12 1.7532e-12 1.6607e-12 1.5702e-12 1.5052e-12 1.4616e-12 1.4454e-12 1.4707e-12 1.5648e-12
1.4850e+02 2.2132e-12 2.0059e-12 1.8994e-12 1.7957e-12 1.7206e-12 1.6702e-12 1.6502e-12 1.6770e-12 1.7812e-12
1.4950e+02 2.5523e-12 2.3109e-12 2.1853e-12 2.0628e-12 1.9737e-12 1.9129e-12 1.8864e-12 1.9135e-12 2.0289e-12
1.5050e+02 2.9153e-12 2.6388e-12 2.4938e-12 2.3529e-12 2.2500e-12 2.1785e-12 2.1460e-12 2.1740e-12 3.7007e-11
1.5120e+02 3.0861e-12 2.8064e-12 2.6608e-12 2.5199e-12 2.4160e-12 2.3466e-12 3.6816e-11 2.3516e-12 2.4888e-12
1.5170e+02 3.2269e-12 2.9440e-12 2.7983e-12 2.6574e-12 2.5529e-12 2.4816e-12 2.4519e-12 2.4871e-12 2.6271e-12
1.5250e+02 2.3897e-12 2.1168e-12 1.9188e-12 1.7327e-12 1.5797e-12 1.4493e-12 1.3421e-12 1.2579e-12 1.2049e-12
1.5350e+02 3.4430e-12 2.9900e-12 2.6778e-12 2.3825e-12 2.1389e-12 1.9309e-12 1.7549e-12 1.6113e-12 1.5135e-12
1.5450e+02 3.8427e-12 3.3499e-12 3.0088e-12 2.6870e-12 2.4175e-12 2.1869e-12 1.9919e-12 1.8308e-12 1.7199e-12
1.5550e+02 4.8047e-12 4.1791e-12 3.7466e-12 3.3340e-12 2.9839e-12 2.6826e-12 2.4249e-12 2.2058e-12 2.0444e-12
1.5650e+02 5.1655e-12 4.5186e-12 4.0712e-12 3.6396e-12 3.2688e-12 2.9520e-12 2.6813e-12 2.4518e-12 2.2822e-12
1.5750e+02 6.5972e-12 5.7669e-12 5.1888e-12 4.6350e-12 4.1555e-12 3.7319e-12 3.3536e-12 3.0220e-12 2.7555e-12
1.5850e+02 7.6427e-12 6.6877e-12 6.0182e-12 5.3784e-12 4.8180e-12 4.3200e-12 3.8785e-12 3.4841e-12 3.1637e-12
1.5950e+02 8.5804e-12 7.5120e-12 6.7614e-12 6.0437e-12 5.4151e-12 4.8562e-12 4.3602e-12 3.9175e-12 3.5541e-12
1.6050e+02 9.6489e-12 8.4565e-12 7.6136e-12 6.8074e-12 6.0987e-12 5.4719e-12 4.9116e-12 4.4107e-12 4.0004e-12
1.6150e+02 1.0706e-11 9.3851e-12 8.4524e-12 7.5550e-12 6.7735e-12 6.0834e-12 5.4658e-12 4.9134e-12 4.4647e-12
1.6250e+02 1.2021e-11 1.0566e-11 9.5287e-12 8.5412e-12 7.6696e-12 6.8899e-12 6.1896e-12 5.5665e-12 5.0468e-12
1.6350e+02 1.3632e-11 1.1988e-11 1.0823e-11 9.7115e-12 8.7347e-12 7.8614e-12 7.0765e-12 6.3700e-12 5.7715e-12
1.6450e+02 1.6537e-11 1.4551e-11 1.3135e-11 1.1789e-11 1.0598e-11 9.5176e-12 8.5320e-12 7.6262e-12 6.8461e-12
1.6550e+02 1.5351e-11 1.3644e-11 1.2421e-11 1.1238e-11 1.0198e-11 9.2570e-12 8.4075e-12 7.6366e-12 6.9833e-12
1.6650e+02 1.9952e-11 1.7646e-11 1.5985e-11 1.4396e-11 1.2986e-11 1.1695e-11 1.0518e-11 9.4318e-12 8.4865e-12
1.6720e+02 1.8581e-11 1.6523e-11 1.5035e-11 1.3596e-11 1.2329e-11 1.1189e-11 1.0147e-11 9.2054e-12 8.4038e-12
1.6770e+02 1.8138e-11 1.5841e-11 1.4104e-11 1.2588e-11 1.1199e-11 9.8902e-12 8.6357e-12 7.3361e-12 6.0283e-12
1.6850e+02 2.1600e-11 1.8884e-11 1.6799e-11 1.4987e-11 1.3313e-11 1.1720e-11 1.0177e-11 8.5801e-12 6.9685e-12
1.6950e+02 2.7441e-11 2.4144e-11 2.1492e-11 1.9144e-11 1.6953e-11 1.4848e-11 1.2779e-11 1.0613e-11 8.4214e-12
1.7050e+02 3.1696e-11 2.7756e-11 2.4648e-11 2.1896e-11 1.9339e-11 1.6897e-11 1.4504e-11 1.2006e-11 9.4721e-12
1.7150e+02 3.2901e-11 2.8426e-11 2.5144e-11 2.2285e-11 1.9693e-11 1.7225e-11 1.4829e-11 1.2293e-11 9.7588e-12
1.7250e+02 3.9269e-11 3.4053e-11 3.0194e-11 2.6819e-11 2.3725e-11 2.0754e-11 1.7835e-11 1.4730e-11 1.1611e-11
1.7350e+02 4.4192e-11 3.8193e-11 3.3818e-11 3.0006e-11 2.6522e-11 2.3171e-11 1.9874e-11 1.6374e-11 1.2843e-11
1.7450e+02 5.3023e-11 4.6019e-11 4.0801e-11 3.6239e-11 3.2045e-11 2.7985e-11 2.3945e-11 1.9653e-11 1.5321e-11
1.7550e+02 6.2989e-11 5.4298e-11 4.7891e-11 4.2322e-11 3.7224e-11 3.2316e-11 2.7435e-11 2.2261e-11 1.7071e-11
1.7650e+02 6.5055e-11 5.6831e-11 5.0501e-11 4.4893e-11 3.9686e-11 3.4635e-11 2.9599e-11 2.4215e-11 1.8770e-11
1.7750e+02 7.0685e-11 6.1282e-11 5.4218e-11 4.8036e-11 4.3467e-11 3.6861e-11 3.1429e-11 2.5663e-11 1.9853e-11
1.7850e+02 8.7026e-11 7.5698e-11 6.7195e-11 5.9721e-11 5.2821e-11 4.6112e-11 3.9351e-11 3.2121e-11 2.4712e-11
1.7950e+02 9.3333e-11 8.0445e-11 7.1044e-11 6.2939e-11 5.5374e-11 4.8133e-11 4.0872e-11 3.3149e-11 2.5295e-11
1.8050e+02 1.0592e-10 9.2766e-11 8.2643e-11 7.3647e-11 6.5249e-11 5.7033e-11 4.8696e-11 3.9738e-11 3.0510e-11
1.8150e+02 1.0833e-10 9.4926e-11 9.1392e-11 8.1001e-11 6.6457e-11 5.7950e-11 4.9386e-11 4.0213e-11 3.0876e-11
1.8250e+02 1.2557e-10 1.1077e-10 9.8992e-11 8.8398e-11 7.8401e-11 6.8580e-11 5.8552e-11 4.7762e-11 3.6568e-11
1.8350e+02 1.3815e-10 1.2148e-10 1.0828e-10 9.6462e-11 8.5345e-11 7.4433e-11 6.3296e-11 5.1340e-11 3.9032e-11
1.8450e+02 1.3137e-10 1.1673e-10 1.0487e-10 9.4116e-11 8.3895e-11 7.3807e-11 6.3557e-11 5.2533e-11 4.1065e-11
1.8550e+02 1.5617e-10 1.3768e-10 1.2294e-10 1.0967e-10 9.7102e-11 8.4748e-11 7.2201e-11 5.8719e-11 4.4875e-11
1.8650e+02 1.8095e-10 1.5895e-10 1.4191e-10 1.2676e-10 1.1253e-10 9.8520e-11 8.4213e-11 6.8765e-11 5.2696e-11
1.8750e+02 1.9619e-10 1.7253e-10 1.5393e-10 1.3728e-10 1.2159e-10 1.0618e-10 9.0421e-11 7.3412e-11 5.5817e-11
1.8850e+02 2.1406e-10 1.8849e-10 1.6838e-10 1.5040e-10 1.3343e-10 1.1672e-10 9.9619e-11 8.1098e-11 6.1833e-11
1.8950e+02 2.5050e-10 2.2098e-10 1.9758e-10 1.7651e-10 1.5657e-10 1.3683e-10 1.1645e-10 9.4274e-11 7.1104e-11
1.9050e+02 2.5803e-10 2.2844e-10 2.0465e-10 1.8310e-10 1.6266e-10 1.4232e-10 1.2142e-10 9.8719e-11 7.5007e-11
1.9150e+02 2.9132e-10 2.5828e-10 2.3173e-10 2.0775e-10 1.8492e-10 1.6211e-10 1.3845e-10 1.1269e-10 8.5550e-11
1.9250e+02 3.0431e-10 2.7112e-10 2.4344e-10 2.1802e-10 1.9359e-10 1.6918e-10 1.4393e-10 1.1663e-10 8.7991e-11
1.9350e+02 2.6514e-10 2.3768e-10 2.1386e-10 1.9180e-10 1.7064e-10 1.4971e-10 1.2849e-10 1.0564e-10 8.2063e-11
1.9450e+02 3.7000e-10 3.2913e-10 2.9539e-10 2.6449e-10 2.3492e-10 2.0544e-10 1.7481e-10 1.4153e-10 1.0652e-10
1.9550e+02 4.0766e-10 3.6387e-10 3.2777e-10 2.9469e-10 2.6280e-10 2.3077e-10 1.9735e-10 1.6077e-10 1.2183e-10
1.9670e+02 4.7097e-10 4.1906e-10 3.7629e-10 3.3722e-10 2.9970e-10 2.6220e-10 2.2288e-10 1.7998e-10 1.3442e-10
1.9760e+02 4.8948e-10 4.3962e-10 3.9722e-10 3.5775e-10 3.1924e-10 2.8031e-10 2.3944e-10 1.9463e-10 1.4687e-10
1.9840e+02 5.2619e-10 4.6988e-10 4.2299e-10 3.7985e-10 3.3842e-10 2.9685e-10 2.5325e-10 2.0559e-10 1.5471e-10
1.9950e+02 5.5728e-10 4.9717e-10 4.4714e-10 4.0119e-10 3.5710e-10 3.1288e-10 2.6650e-10 2.1586e-10 1.6188e-10
2.0050e+02 5.8459e-10 5.2326e-10 4.7170e-10 4.2407e-10 3.7830e-10 3.3232e-10 2.8411e-10 2.3145e-10 1.7505e-10
2.0150e+02 6.4553e-10 5.7756e-10 5.2043e-10 4.6799e-10 4.1754e-10 3.6680e-10 3.1331e-10 2.5492e-10 1.9229e-10
2.0250e+02 6.1042e-10 5.4874e-10 4.9578e-10 4.4653e-10 3.9892e-10 3.5111e-10 3.0109e-10 2.4661e-10 1.8850e-10
2.0350e+02 7.3672e-10 6.5899e-10 5.9390e-10 5.3426e-10 4.7691e-10 4.1902e-10 3.5815e-10 2.9149e-10 2.2001e-10
2.0450e+02 8.0767e-10 7.2119e-10 6.4889e-10 5.8291e-10 5.1958e-10 4.5574e-10 3.8859e-10 3.1523e-10 2.3669e-10
2.0550e+02 8.6536e-10 7.7694e-10 7.0150e-10 6.3189e-10 5.6436e-10 4.9610e-10 4.2402e-10 3.4522e-10 2.6016e-10
2.0650e+02 9.0064e-10 8.0966e-10 7.3149e-10 6.5892e-10 5.8849e-10 5.1713e-10 4.4190e-10 3.5954e-10 2.7100e-10
2.0740e+02 9.2811e-10 8.3411e-10 7.5280e-10 6.7713e-10 6.0346e-10 5.2909e-10 4.5068e-10 3.6551e-10 2.7422e-10
2.0780e+02 1.0977e-09 9.8756e-10 8.9955e-10 8.2148e-10 7.4673e-10 6.7014e-10 5.8418e-10 4.8895e-10 3.8875e-10
2.0850e+02 1.1671e-09 1.0548e-09 9.6266e-10 8.7980e-10 7.9994e-10 7.1841e-10 6.2602e-10 5.2469e-10 4.1625e-10
2.0950e+02 1.4778e-09 1.3162e-09 1.1882e-09 1.0773e-09 9.7411e-10 8.7153e-10 7.5777e-10 6.3231e-10 4.9562e-10
2.1050e+02 1.9621e-09 1.6638e-09 1.4429e-09 1.2648e-09 1.1143e-09 9.7843e-10 8.3991e-10 6.9313e-10 5.3711e-10
2.1150e+02 2.3662e-09 1.9605e-09 1.6670e-09 1.4384e-09 1.2520e-09 1.0891e-09 9.2788e-10 7.5892e-10 5.8070e-10
2.1250e+02 2.2625e-09 1.9122e-09 1.6533e-09 1.4469e-09 1.2739e-09 1.1190e-09 9.6220e-10 7.9572e-10 6.1899e-10
2.1350e+02 2.6412e-09 2.2327e-09 1.9315e-09 1.6869e-09 1.4802e-09 1.2980e-09 1.1166e-09 9.2461e-10 7.2146e-10
2.1450e+02 2.9491e-09 2.4119e-09 2.0229e-09 1.7229e-09 1.4831e-09 1.2815e-09 1.0882e-09 8.8970e-10 6.8353e-10
2.1550e+02 2.9591e-09 2.4495e-09 2.0822e-09 1.7959e-09 1.5632e-09 1.3635e-09 1.1685e-09 9.6496e-10 7.4974e-10
2.1650e+02 2.7993e-09 2.3699e-09 2.0504e-09 1.7937e-09 1.5777e-09 1.3845e-09 1.1899e-09 9.8518e-10 7.6819e-10
2.1750e+02 2.9644e-09 2.5201e-09 2.1887e-09 1.9214e-09 1.6947e-09 1.4898e-09 1.2823e-09 1.0627e-09 8.2950e-10
2.1850e+02 3.5134e-09 2.8830e-09 2.4291e-09 2.0776e-09 1.7966e-09 1.5600e-09 1.3309e-09 1.0949e-09 8.4739e-10
2.1950e+02 3.8390e-09 3.1940e-09 2.7220e-09 2.3506e-09 2.0465e-09 1.7835e-09 1.5264e-09 1.2597e-09 9.7530e-10
2.2050e+02 3.8436e-09 3.2204e-09 2.7560e-09 2.3858e-09 2.0799e-09 1.8128e-09 1.5521e-09 1.2784e-09 9.9003e-10
2.2150e+02 3.5949e-09 3.1090e-09 2.7359e-09 2.4233e-09 2.1501e-09 1.9013e-09 1.6466e-09 1.3761e-09 1.0858e-09
2.2250e+02 4.4163e-09 3.7114e-09 3.1793e-09 2.7507e-09 2.3932e-09 2.0850e-09 1.7864e-09 1.4756e-09 1.1499e-09
2.2350e+02 5.9220e-09 4.8221e-09 4.0011e-09 3.3604e-09 2.8534e-09 2.4398e-09 2.0663e-09 1.6970e-09 1.3119e-09
2.2450e+02 6.0566e-09 5.0010e-09 4.2094e-09 3.5820e-09 3.0716e-09 2.6480e-09 2.2572e-09 1.8645e-09 1.4522e-09
2.2550e+02 5.3857e-09 4.6048e-09 3.9998e-09 3.4999e-09 3.0761e-09 2.7003e-09 2.3362e-09 1.9546e-09 1.5437e-09
2.2650e+02 4.5610e-09 3.9683e-09 3.5009e-09 3.1075e-09 2.7631e-09 2.4457e-09 2.1249e-09 1.7812e-09 1.4111e-09
2.2750e+02 5.0785e-09 4.4422e-09 3.9459e-09 3.5241e-09 3.1553e-09 2.8129e-09 2.4622e-09 2.0795e-09 1.6546e-09
2.2850e+02 6.5565e-09 5.5283e-09 4.7437e-09 4.1099e-09 3.5865e-09 3.1339e-09 2.7035e-09 2.2567e-09 1.7740e-09
2.2950e+02 6.2975e-09 5.4850e-09 4.8517e-09 4.3208e-09 3.8597e-09 3.4381e-09 3.0153e-09 2.5628e-09 2.0590e-09
2.3050e+02 6.5027e-09 5.4949e-09 4.7196e-09 4.0927e-09 3.5730e-09 3.1215e-09 2.6887e-09 2.2368e-09 1.7569e-09
2.3150e+02 7.4385e-09 6.4246e-09 5.6346e-09 4.9747e-09 4.4082e-09 3.8991e-09 3.4031e-09 2.8764e-09 2.3005e-09
2.3250e+02 7.1447e-09 6.2576e-09 5.5465e-09 4.9409e-09 4.4075e-09 3.9159e-09 3.4214e-09 2.8872e-09 2.2971e-09
2.3350e+02 8.3660e-09 7.3992e-09 6.5975e-09 5.8970e-09 5.2665e-09 4.6839e-09 4.1039e-09 3.4864e-09 2.8075e-09
2.3450e+02 6.7642e-09 6.1560e-09 5.6231e-09 5.1267e-09 4.6507e-09 4.1860e-09 3.6945e-09 3.1529e-09 2.5599e-09
2.3550e+02 8.3221e-09 7.2482e-09 6.3698e-09 5.6245e-09 4.9745e-09 4.3851e-09 3.8035e-09 3.1840e-09 2.5135e-09
2.3650e+02 7.6832e-09 6.9852e-09 6.3735e-09 5.8062e-09 5.2614e-09 4.7322e-09 4.1744e-09 3.5595e-09 2.8816e-09
2.3750e+02 8.4721e-09 7.5963e-09 6.8452e-09 6.1694e-09 5.5421e-09 4.9495e-09 4.3383e-09 3.6731e-09 2.9399e-09
2.3850e+02 8.1860e-09 7.5946e-09 7.0655e-09 6.5498e-09 6.0318e-09 5.5073e-09 4.9319e-09 4.2902e-09 3.5736e-09
2.3950e+02 9.1148e-09 8.3349e-09 7.6426e-09 6.9956e-09 6.3680e-09 5.7539e-09 5.1024e-09 4.3838e-09 3.5839e-09
2.4050e+02 1.0806e-08 9.8818e-09 9.0730e-09 8.3151e-09 7.5850e-09 6.8756e-09 6.1302e-09 5.3190e-09 4.4151e-09
2.4150e+02 9.7434e-09 8.8940e-09 8.1625e-09 7.4809e-09 6.8273e-09 6.1868e-09 5.4996e-09 4.7394e-09 3.8836e-09
2.4250e+02 1.3378e-08 1.1639e-08 1.0240e-08 9.0494e-09 8.0146e-09 7.0912e-09 6.1903e-09 5.2499e-09 4.2216e-09
2.4350e+02 1.4349e-08 1.2583e-08 1.1154e-08 9.9253e-09 8.8445e-09 7.8734e-09 6.9173e-09 5.9168e-09 4.8101e-09
2.4450e+02 1.7397e-08 1.5014e-08 1.3115e-08 1.1519e-08 1.0155e-08 8.9634e-09 7.8346e-09 6.6840e-09 5.4289e-09
2.4550e+02 1.8669e-08 1.6114e-08 1.4091e-08 1.2393e-08 1.0943e-08 9.6772e-09 8.4789e-09 7.2528e-09 5.9130e-09
2.4650e+02 1.4843e-08 1.3144e-08 1.1770e-08 1.0581e-08 9.5223e-09 8.5456e-09 7.5527e-09 6.4803e-09 5.2762e-09
2.4750e+02 1.5295e-08 1.3770e-08 1.2533e-08 1.1442e-08 1.0440e-08 9.4944e-09 8.5122e-09 7.4383e-09 6.2135e-09
2.4850e+02 9.4147e-09 8.7953e-09 8.2436e-09 7.7094e-09 7.1732e-09 6.6141e-09 5.9738e-09 5.2504e-09 4.4277e-09
2.4950e+02 1.2072e-08 1.1048e-08 1.0178e-08 9.3773e-09 8.6190e-09 7.8681e-09 7.0494e-09 6.1475e-09 5.1228e-09
2.5050e+02 1.6045e-08 1.4533e-08 1.3279e-08 1.2157e-08 1.1112e-08 1.0103e-08 9.0345e-09 7.8532e-09 6.4961e-09
2.5130e+02 1.2318e-08 1.1597e-08 1.0926e-08 1.0255e-08 9.5641e-09 8.8252e-09 7.9782e-09 7.0039e-09 5.8656e-09
2.5180e+02 1.0799e-08 1.0242e-08 9.7051e-09 9.1498e-09 8.5761e-09 7.9539e-09 7.2748e-09 6.5384e-09 5.7570e-09
2.5250e+02 1.1119e-08 1.0525e-08 9.9672e-09 9.4028e-09 8.8244e-09 8.2049e-09 7.5320e-09 6.8091e-09 6.0477e-09
2.5350e+02 1.5502e-08 1.4609e-08 1.3794e-08 1.2988e-08 1.2182e-08 1.1344e-08 1.0450e-08 9.4809e-09 8.4138e-09
2.5450e+02 1.8165e-08 1.6976e-08 1.5903e-08 1.4861e-08 1.3840e-08 1.2805e-08 1.1726e-08 1.0581e-08 9.3263e-09
2.5550e+02 3.5121e-08 3.0620e-08 2.6740e-08 2.3313e-08 2.0296e-08 1.7611e-08 1.5187e-08 1.2947e-08 1.0791e-08
2.5650e+02 2.9860e-08 2.6285e-08 2.3170e-08 2.0387e-08 1.7897e-08 1.5628e-08 1.3517e-08 1.1480e-08 9.4486e-09
2.5750e+02 5.2387e-08 4.3963e-08 3.6693e-08 3.0449e-08 2.5152e-08 2.0715e-08 1.7004e-08 1.3855e-08 1.1083e-08
2.5850e+02 4.9075e-08 4.1516e-08 3.4912e-08 2.9193e-08 2.4287e-08 2.0120e-08 1.6571e-08 1.3496e-08 1.0737e-08
2.5950e+02 4.7947e-08 4.1092e-08 3.5079e-08 2.9814e-08 2.5232e-08 2.1253e-08 1.7777e-08 1.4678e-08 1.1830e-08
2.6050e+02 4.5889e-08 4.0354e-08 3.5403e-08 3.0917e-08 2.6861e-08 2.3186e-08 1.9830e-08 1.6717e-08 1.3767e-08
2.6150e+02 4.1723e-08 3.7049e-08 3.2862e-08 2.9047e-08 2.5572e-08 2.2387e-08 1.9430e-08 1.6625e-08 1.3881e-08
2.6250e+02 5.9668e-08 5.1627e-08 4.4537e-08 3.8245e-08 3.2688e-08 2.7787e-08 2.3443e-08 1.9546e-08 1.5963e-08
2.6350e+02 1.4932e-07 1.2339e-07 1.0025e-07 7.9980e-08 6.2580e-08 4.8058e-08 3.6335e-08 2.7211e-08 2.0298e-08
2.6450e+02 1.6849e-07 1.3771e-07 1.1034e-07 8.6509e-08 6.6236e-08 4.9549e-08 3.6326e-08 2.6258e-08 1.8706e-08
2.6550e+02 3.1542e-07 2.5896e-07 2.0718e-07 1.6087e-07 1.2041e-07 8.6312e-08 5.8953e-08 3.8442e-08 2.4302e-08
2.6650e+02 1.6982e-07 1.4053e-07 1.1423e-07 9.1069e-08 7.1076e-08 5.4298e-08 4.0671e-08 2.9991e-08 2.1860e-08
2.6750e+02 1.7806e-07 1.4646e-07 1.1814e-07 9.3315e-08 7.2023e-08 5.4320e-08 4.0117e-08 2.9148e-08 2.0912e-08
2.6850e+02 2.5767e-07 2.1163e-07 1.6988e-07 1.3291e-07 1.0092e-07 7.4172e-08 5.2755e-08 3.6513e-08 2.4817e-08
2.6950e+02 1.3111e-07 1.0854e-07 8.8605e-08 7.1287e-08 5.6561e-08 4.4362e-08 3.4510e-08 2.6700e-08 2.0430e-08
2.7050e+02 2.0583e-07 1.6973e-07 1.3738e-07 1.0892e-07 8.4420e-08 6.3984e-08 4.7549e-08 3.4878e-08 2.5284e-08
2.7150e+02 1.1873e-07 9.9664e-08 8.2910e-08 6.8340e-08 5.5876e-08 4.5421e-08 3.6812e-08 2.9766e-08 2.3889e-08
2.7250e+02 6.1662e-08 5.4518e-08 4.8374e-08 4.2941e-08 3.8100e-08 3.3711e-08 2.9632e-08 2.5697e-08 2.1703e-08
2.7350e+02 9.3382e-08 7.9925e-08 6.8197e-08 5.7972e-08 4.9135e-08 4.1532e-08 3.4988e-08 2.9208e-08 2.3904e-08
2.7450e+02 7.2600e-08 6.5223e-08 5.8611e-08 5.2539e-08 4.6962e-08 4.1801e-08 3.6981e-08 3.2383e-08 2.7839e-08
2.7550e+02 1.0309e-07 8.9429e-08 7.7304e-08 6.6492e-08 5.6926e-08 4.8498e-08 4.1068e-08 3.4451e-08 2.8387e-08
2.7650e+02 1.5309e-07 1.2994e-07 1.0949e-07 9.1520e-08 7.5899e-08 6.2500e-08 5.1116e-08 4.1444e-08 3.3085e-08
2.7750e+02 1.4332e-07 1.2334e-07 1.0574e-07 9.0171e-08 7.6475e-08 6.4494e-08 5.3998e-08 4.4760e-08 3.6352e-08
2.7850e+02 7.5817e-08 6.9365e-08 6.3384e-08 5.7689e-08 5.2246e-08 4.6991e-08 4.1839e-08 3.6664e-08 3.1219e-08
2.7950e+02 4.8356e-08 4.6174e-08 4.4209e-08 4.2242e-08 4.0252e-08 3.8201e-08 3.6061e-08 3.3795e-08 3.1342e-08
2.8050e+02 5.5423e-08 5.2548e-08 4.9914e-08 4.7309e-08 4.4708e-08 4.2066e-08 3.9341e-08 3.6477e-08 3.3350e-08
2.8150e+02 1.1031e-07 9.7892e-08 8.6875e-08 7.6906e-08 6.7864e-08 5.9609e-08 5.1922e-08 4.4554e-08 3.7017e-08
2.8250e+02 1.2316e-07 1.0705e-07 9.3349e-08 8.1429e-08 7.1015e-08 6.1874e-08 5.3641e-08 4.6006e-08 3.8361e-08
2.8350e+02 8.4579e-08 7.6381e-08 6.9411e-08 6.3163e-08 5.7465e-08 5.2148e-08 4.7017e-08 4.1809e-08 3.6163e-08
2.8450e+02 5.5125e-08 5.1924e-08 4.9037e-08 4.6245e-08 4.3456e-08 4.0536e-08 3.7349e-08 3.3737e-08 2.9426e-08
2.8550e+02 3.7881e-08 3.6104e-08 3.4340e-08 3.2517e-08 3.0590e-08 2.8520e-08 2.6254e-08 2.3709e-08 2.0876e-08
2.8650e+02 7.3245e-08 6.7794e-08 6.3121e-08 5.8850e-08 5.4812e-08 5.0863e-08 4.6818e-08 4.2457e-08 3.7452e-08
2.8750e+02 1.1946e-07 1.0522e-07 9.3294e-08 8.2898e-08 7.3760e-08 6.5625e-08 5.8195e-08 5.1089e-08 4.3828e-08
2.8850e+02 1.8074e-07 1.5508e-07 1.3295e-07 1.1381e-07 9.7367e-08 8.3352e-08 7.1355e-08 6.0888e-08 5.1286e-08
2.8950e+02 3.3442e-07 2.7878e-07 2.2946e-07 1.8643e-07 1.4968e-07 1.1912e-07 9.4355e-08 7.4688e-08 5.8743e-08
2.9100e+02 5.4424e-07 4.5299e-07 3.6972e-07 2.9531e-07 2.3026e-07 1.7516e-07 1.3024e-07 9.5319e-08 6.9035e-08
2.9300e+02 5.3547e-07 4.5000e-07 3.7130e-07 3.0017e-07 2.3712e-07 1.8279e-07 1.3767e-07 1.0184e-07 7.4644e-08
2.9500e+02 4.4285e-07 3.7233e-07 3.0832e-07 2.5118e-07 2.0114e-07 1.5849e-07 1.2331e-07 9.5239e-08 7.3306e-08
